wavelength (nm),intensity (counts)
178.19,30618
178.57,30775
178.95,31028
179.34,30580
179.72,32066
180.1,31630
180.48,32008
180.87,31816
181.25,32505
181.63,32194
182.01,32255
182.4,32505
182.78,31976
183.16,32194
183.54,31752
183.92,32441
184.31,32537
184.69,32476
185.07,32322
185.45,32883
185.84,32095
186.22,32287
186.6,31877
186.98,33290
187.36,32162
187.75,32319
188.13,32755
188.51,32348
188.89,32441
189.27,32194
189.65,32255
190.04,32479
190.42,32226
190.8,32130
191.18,32072
191.56,32537
191.94,32418
192.32,32601
192.71,32351
193.09,32726
193.47,32441
193.85,32037
194.23,32476
194.61,32473
194.99,32386
195.38,31976
195.76,32729
196.14,32918
196.52,32101
196.9,32415
197.28,32662
197.66,33290
198.04,31973
198.42,33360
198.8,32735
199.19,32476
199.57,32252
199.95,32976
200.33,32473
200.71,32360
201.09,32441
201.47,32604
201.85,32508
202.23,32508
202.61,32665
202.99,32418
203.37,33293
203.75,32918
204.13,33546
204.51,32351
204.9,32255
205.28,33110
205.66,33386
206.04,32540
206.42,32607
206.8,32700
207.18,32325
207.56,32668
207.94,32415
208.32,32630
208.7,32921
209.08,33075
209.46,33549
209.84,32633
210.22,32194
210.6,32473
210.98,33139
211.36,33360
211.74,33200
212.12,32290
212.5,32514
212.88,32476
213.26,32226
213.64,32293
214.01,33040
214.39,32415
214.77,33421
215.15,31950
215.53,32351
215.91,33075
216.29,33296
216.67,33514
217.05,32886
217.43,33235
217.81,32508
218.19,33421
218.57,33139
218.95,33232
219.33,33014
219.7,32232
220.08,32796
220.46,32636
220.84,33360
221.22,32947
221.6,32796
221.98,32825
222.36,32668
222.74,32642
223.11,32924
223.49,33700
223.87,33540
224.25,33514
224.63,32883
225.01,33081
225.39,33171
225.77,33482
226.14,33264
226.52,32857
226.9,32703
227.28,31944
227.66,33200
228.04,32825
228.41,32886
228.79,33351
229.17,32700
229.55,32947
229.93,33017
230.31,32886
230.68,32950
231.06,32700
231.44,32636
231.82,33168
232.2,33514
232.57,32421
232.95,32761
233.33,33011
233.71,33264
234.09,33357
234.46,33485
234.84,33546
235.22,33482
235.6,33572
235.97,32889
236.35,33668
236.73,32700
237.11,33261
237.48,33610
237.86,32857
238.24,33229
238.62,33424
238.99,32697
239.37,32889
239.75,33392
240.13,33011
240.5,32758
240.88,33828
241.26,33261
241.63,32479
242.01,33482
242.39,33328
242.77,33075
243.14,34049
243.52,33450
243.9,33831
244.27,33078
244.65,33113
245.03,32889
245.4,32793
245.78,32668
246.16,33238
246.53,32889
246.91,33511
247.29,33886
247.66,33046
248.04,33296
248.42,32918
248.79,33421
249.17,33139
249.55,33136
249.92,33950
250.3,33014
250.68,32950
251.05,33392
251.43,33543
251.8,32636
252.18,33360
252.56,32819
252.93,33386
253.31,32886
253.68,33668
254.06,32540
254.44,33389
254.81,32630
255.19,33572
255.56,31636
255.94,33479
256.32,33357
256.69,32889
257.07,32723
257.44,32322
257.82,32386
258.19,33927
258.57,33107
258.94,33453
259.32,33267
259.7,33261
260.07,33168
260.45,32694
260.82,33921
261.2,32354
261.57,33072
261.95,33767
262.32,32476
262.7,33450
263.07,33075
263.45,32450
263.82,33424
264.2,32825
264.57,33037
264.95,33139
265.32,32537
265.7,33264
266.07,32601
266.45,33229
266.82,33235
267.2,32508
267.57,33453
267.95,33703
268.32,33293
268.7,32950
269.07,32883
269.45,32851
269.82,33447
270.19,32950
270.57,32325
270.94,33078
271.32,32825
271.69,32703
272.07,32912
272.44,34011
272.81,32982
273.19,32729
273.56,33168
273.94,32764
274.31,32633
274.69,32854
275.06,33671
275.43,33139
275.81,32229
276.18,33639
276.56,33075
276.93,32732
277.3,32892
277.68,32825
278.05,33075
278.42,32793
278.8,32290
279.17,33043
279.55,32636
279.92,33697
280.29,33168
280.67,33578
281.04,33328
281.41,32729
281.79,33197
282.16,33421
282.53,32729
282.91,32979
283.28,32665
283.65,33328
284.03,32287
284.4,33014
284.77,32918
285.14,33299
285.52,32976
285.89,32732
286.26,33514
286.64,33482
287.01,33322
287.38,33270
287.76,33575
288.13,34267
288.5,32950
288.87,32886
289.25,33479
289.62,33793
289.99,32889
290.36,33043
290.74,32857
291.11,33104
291.48,32726
291.85,32383
292.23,33229
292.6,33142
292.97,33299
293.34,33854
293.72,32258
294.09,35718
294.46,32703
294.83,33232
295.2,32665
295.58,33165
295.95,32851
296.32,32790
296.69,32668
297.06,32011
297.44,32886
297.81,32886
298.18,33668
298.55,33171
298.92,32854
299.29,32761
299.67,33514
300.04,32575
300.41,32482
300.78,34139
301.15,32979
301.52,33293
301.89,33107
302.27,32636
302.64,32572
303.01,32851
303.38,33232
303.75,32883
304.12,32822
304.49,33136
304.87,32854
305.24,33040
305.61,32915
305.98,32793
306.35,33700
306.72,33578
307.09,32604
307.46,32726
307.83,33587
308.2,32822
308.57,32636
308.95,32514
309.32,32950
309.69,33066
310.06,32296
310.43,33299
310.8,32697
311.17,33822
311.54,32537
311.91,32732
312.28,33136
312.65,32418
313.02,32700
313.39,32950
313.76,32636
314.13,32700
314.5,33732
314.87,32604
315.24,32354
315.61,33139
315.98,32636
316.35,33293
316.72,32889
317.09,33264
317.46,33075
317.83,32726
318.2,33636
318.57,32953
318.94,32296
319.31,33232
319.68,33232
320.05,32915
320.42,32857
320.79,33081
321.16,33110
321.53,33200
321.9,32482
322.27,33075
322.64,32511
323.01,32139
323.38,32636
323.74,32232
324.11,33139
324.48,32857
324.85,33790
325.22,33732
325.59,32386
325.96,33072
326.33,32450
326.7,33354
327.07,33168
327.43,32700
327.8,32357
328.17,33072
328.54,32793
328.91,32200
329.28,32514
329.65,32726
330.02,32950
330.38,32761
330.75,32758
331.12,32668
331.49,32418
331.86,32857
332.23,32982
332.6,32700
332.96,33110
333.33,32319
333.7,32697
334.07,32389
334.44,33136
334.8,32450
335.17,32668
335.54,33459
335.91,33043
336.28,32354
336.64,33052
337.01,33421
337.38,32322
337.75,32229
338.12,33014
338.48,33136
338.85,32418
339.22,32822
339.59,33238
339.95,32761
340.32,32197
340.69,32444
341.06,32418
341.42,33072
341.79,33232
342.16,32950
342.53,33203
342.89,33578
343.26,32979
343.63,32822
344,32886
344.36,32319
344.73,33200
345.1,32822
345.46,33165
345.83,32662
346.2,32578
346.57,33104
346.93,32976
347.3,32729
347.67,33043
348.03,33017
348.4,32892
348.77,32357
349.13,33069
349.5,33578
349.87,32973
350.23,33136
350.6,32633
350.97,32537
351.33,33299
351.7,33014
352.06,33200
352.43,32450
352.8,32793
353.16,32447
353.53,32793
353.9,32607
354.26,33168
354.63,32418
354.99,34107
355.36,33232
355.73,32642
356.09,32729
356.46,33700
356.82,32412
357.19,32947
357.56,32450
357.92,33069
358.29,32543
358.65,33479
359.02,32854
359.38,32950
359.75,32348
360.11,33325
360.48,32764
360.85,32790
361.21,32956
361.58,32668
361.94,32921
362.31,33101
362.67,32322
363.04,32761
363.4,32793
363.77,33325
364.13,32886
364.5,32694
364.86,32514
365.23,32671
365.59,33136
365.96,33107
366.32,32136
366.69,32447
367.05,32787
367.42,32264
367.78,33860
368.15,32104
368.51,33450
368.87,32697
369.24,33325
369.6,32816
369.97,32790
370.33,32956
370.7,33732
371.06,33014
371.43,32540
371.79,32668
372.15,33386
372.52,32543
372.88,33040
373.25,32982
373.61,32232
373.98,32572
374.34,32851
374.7,33040
375.07,32572
375.43,32729
375.79,32601
376.16,33229
376.52,32950
376.89,33104
377.25,32671
377.61,32799
377.98,32979
378.34,32633
378.7,33546
379.07,32857
379.43,32825
379.79,32322
380.16,32316
380.52,32950
380.88,32735
381.25,32444
381.61,33008
381.97,32665
382.34,33200
382.7,33072
383.06,32915
383.43,32793
383.79,32447
384.15,32883
384.51,32950
384.88,33104
385.24,32758
385.6,32502
385.97,32697
386.33,32976
386.69,32982
387.05,32386
387.42,32322
387.78,33229
388.14,32604
388.5,32191
388.87,32578
389.23,32476
389.59,33389
389.95,32729
390.32,33607
390.68,32261
391.04,32415
391.4,33258
391.76,32226
392.13,32735
392.49,33424
392.85,32912
393.21,32261
393.57,33697
393.94,32825
394.3,32947
394.66,33110
395.02,33165
395.38,32697
395.75,32671
396.11,32825
396.47,32287
396.83,32572
397.19,32322
397.55,32921
397.91,33017
398.28,32354
398.64,33139
399,32351
399.36,32479
399.72,32889
400.08,33075
400.44,32764
400.8,32732
401.17,32825
401.53,32665
401.89,33040
402.25,32508
402.61,32668
402.97,33011
403.33,32572
403.69,32566
404.05,32636
404.41,33453
404.77,32668
405.13,32328
405.5,32857
405.86,32043
406.22,32601
406.58,33418
406.94,32601
407.3,32572
407.66,32790
408.02,32072
408.38,33732
408.74,32671
409.1,32482
409.46,33674
409.82,32354
410.18,32354
410.54,33331
410.9,33238
411.26,33043
411.62,33171
411.98,32386
412.34,33735
412.7,33014
413.06,32325
413.42,33049
413.78,32421
414.14,33424
414.5,33235
414.86,33142
415.22,33488
415.58,33674
415.93,33110
416.29,32796
416.65,32738
417.01,33834
417.37,33209
417.73,33302
418.09,33401
418.45,33488
418.81,32872
419.17,33782
419.53,33465
419.89,33936
420.24,34564
420.6,34131
420.96,33686
421.32,34349
421.68,34003
422.04,34070
422.4,34105
422.76,33980
423.11,34835
423.47,34954
423.83,34076
424.19,34954
424.55,33832
424.91,35507
425.27,35402
425.62,35097
425.98,36353
426.34,35475
426.7,35609
427.06,35955
427.41,36609
427.77,36993
428.13,36461
428.49,36880
428.85,37095
429.2,36517
429.56,38462
429.92,38238
430.28,38215
430.64,39070
430.99,39009
431.35,39044
431.71,39617
432.07,39396
432.42,40254
432.78,40772
433.14,41836
433.5,40865
433.85,41400
434.21,42194
434.57,41703
434.93,42459
435.28,42814
435.64,43550
436,43678
436.35,44783
436.71,46313
437.07,45438
437.42,46159
437.78,47779
438.14,46503
438.5,46378
438.85,47896
439.21,49074
439.57,49932
439.92,50729
440.28,50389
440.64,51907
440.99,52364
441.35,54147
441.71,55421
442.06,56209
442.42,57454
442.77,57152
443.13,58231
443.49,60026
443.84,59575
444.2,60931
444.56,62167
444.91,64892
445.27,65105
445.62,66158
445.98,67310
446.34,69381
446.69,70914
447.05,73785
447.4,74312
447.76,74858
448.11,78518
448.47,80339
448.83,81342
449.18,80747
449.54,83332
449.89,84278
450.25,88911
450.6,89232
450.96,91390
451.31,93095
451.67,92790
452.02,96164
452.38,97645
452.73,100737
453.09,99824
453.44,100842
453.8,101445
454.15,104144
454.51,103757
454.86,106422
455.22,105034
455.57,104688
455.93,108240
456.28,110704
456.64,109101
456.99,109331
457.35,107167
457.7,108467
458.06,104078
458.41,107065
458.77,104130
459.12,101864
459.47,100747
459.83,99761
460.18,101058
460.54,97259
460.89,97096
461.25,93879
461.6,95103
461.95,90580
462.31,91967
462.66,88122
463.02,88558
463.37,85146
463.72,83677
464.08,82801
464.43,80000
464.79,78336
465.14,77466
465.49,75825
465.85,75331
466.2,74228
466.55,71712
466.91,71898
467.26,71447
467.61,69722
467.97,67468
468.32,66720
468.67,66866
469.03,65702
469.38,64227
469.73,63849
470.09,61915
470.44,62531
470.79,62101
471.15,61638
471.5,59861
471.85,60902
472.2,59843
472.56,59165
472.91,59209
473.26,57580
473.61,57615
473.97,57225
474.32,57222
474.67,55945
475.03,56771
475.38,56669
475.73,54738
476.08,54386
476.43,54095
476.79,53295
477.14,53749
477.49,52536
477.84,53100
478.2,52152
478.55,51073
478.9,50936
479.25,50802
479.6,51305
479.96,51011
480.31,49554
480.66,49717
481.01,49670
481.36,48565
481.71,48998
482.07,48957
482.42,47605
482.77,47730
483.12,48465
483.47,48003
483.82,46331
484.18,47270
484.53,46950
484.88,47453
485.23,46502
485.58,46220
485.93,45478
486.28,45734
486.63,45135
486.98,45225
487.34,45594
487.69,44742
488.04,45280
488.39,44239
488.74,44643
489.09,44576
489.44,43980
489.79,44826
490.14,44131
490.49,43808
490.84,43718
491.19,43869
491.54,43619
491.89,42924
492.24,42895
492.6,43857
492.95,43165
493.3,42947
493.65,42444
494,42688
494.35,42575
494.7,41848
495.05,42374
495.4,42336
495.75,42214
496.1,42022
496.45,42214
496.8,42490
497.15,42333
497.5,42115
497.85,42234
498.19,42679
498.54,42240
498.89,41958
499.24,42856
499.59,41679
499.94,42609
500.29,41853
500.64,41792
500.99,41606
501.34,40350
501.69,40411
502.04,41763
502.39,41955
502.74,41539
503.09,41949
503.43,41065
503.78,41382
504.13,42170
504.48,41789
504.83,41376
505.18,41286
505.53,42385
505.88,42193
506.22,41699
506.57,43080
506.92,41353
507.27,43586
507.62,42205
507.97,42586
508.32,42365
508.66,42429
509.01,42510
509.36,42429
509.71,42615
510.06,42676
510.4,42423
510.75,42304
511.1,41987
511.45,43563
511.8,42426
512.14,42868
512.49,43281
512.84,42810
513.19,42243
513.54,43162
513.88,43348
514.23,43976
514.58,42627
514.93,43345
515.27,43947
515.62,43476
515.97,43418
516.32,44517
516.66,44427
517.01,43575
517.36,43485
517.71,44136
518.05,44642
518.4,44014
518.75,43985
519.09,43764
519.44,44043
519.79,44017
520.13,43767
520.48,45186
520.83,45122
521.17,44715
521.52,45000
521.87,44401
522.21,44590
522.56,44340
522.91,44767
523.25,44933
523.6,44305
523.95,43738
524.29,44805
524.64,45218
524.99,44209
525.33,44741
525.68,44581
526.02,44459
526.37,44959
526.72,44372
527.06,44494
527.41,43735
527.75,45398
528.1,44901
528.45,43962
528.79,43805
529.14,44654
529.48,43892
529.83,43985
530.17,43895
530.52,44953
530.87,44087
531.21,44023
531.56,44424
531.9,44552
532.25,44651
532.59,43994
532.94,45238
533.28,43985
533.63,44616
533.97,44046
534.32,44494
534.66,44555
535.01,43863
535.35,43700
535.7,43860
536.04,44578
536.39,44706
536.73,43453
537.08,43639
537.42,44270
537.77,44898
538.11,43918
538.45,44578
538.8,44081
539.14,45526
539.49,44389
540.18,43316
540.52,44174
540.86,44180
541.21,43607
541.55,43825
541.9,43363
542.24,43200
542.58,42505
542.93,43767
543.27,44244
543.62,44450
543.96,43412
544.3,44453
544.65,44453
544.99,44113
545.33,44107
545.68,44552
546.02,44232
546.37,44174
546.71,44238
547.05,43994
547.4,44337
547.74,44590
548.08,44491
548.43,43709
548.77,43427
549.11,44523
549.45,44581
549.8,44584
550.14,44049
550.48,44430
550.83,44907
551.17,44436
551.51,45218
551.85,44779
552.2,45599
552.54,44276
552.88,44782
553.22,44116
553.57,46041
553.91,44308
554.25,45006
554.59,45192
554.94,45195
555.28,45666
555.62,45387
555.96,45239
556.31,45649
556.65,45387
556.99,45262
557.33,45172
557.67,45829
558.02,45361
558.36,46155
558.7,45800
559.04,45832
559.38,46053
559.72,46405
560.07,46204
560.41,46966
560.75,45707
561.09,46155
561.43,46469
561.77,46097
562.11,46812
562.46,46312
562.8,46719
563.14,46603
563.48,46658
563.82,46862
564.16,47039
564.5,47138
564.84,47638
565.18,47010
565.53,47327
565.87,47260
566.21,47327
566.55,46984
566.89,47513
567.23,47228
567.57,46882
567.91,46984
568.25,46926
568.59,47010
568.93,48048
569.27,47321
569.61,48118
569.95,47999
570.29,47647
570.63,47757
570.97,46888
571.31,47769
571.65,48560
571.99,47580
572.33,47487
572.67,47388
573.01,48964
573.35,47170
573.69,47586
574.03,48019
574.37,47615
574.71,47670
575.05,48016
575.39,47740
575.73,47967
576.07,48595
576.41,47385
576.75,48025
577.09,48028
577.43,47775
577.77,48025
578.11,46943
578.45,47836
578.78,47856
579.12,48240
579.46,48115
579.8,47513
580.14,47080
580.48,47551
580.82,48147
581.16,47897
581.5,47638
581.83,47295
582.17,48016
582.51,48173
582.85,47231
583.19,47452
583.53,47859
583.86,47289
584.2,48016
584.54,47164
584.88,46882
585.22,47853
585.56,47853
585.89,47356
586.23,47705
586.57,48548
586.91,48327
587.25,47923
587.58,48484
587.92,48545
588.26,48385
588.6,47507
588.93,47289
589.27,49205
589.61,48289
589.95,48132
590.28,48362
590.62,48481
590.96,47882
591.3,47603
591.63,49068
591.97,48981
592.31,49144
592.65,48792
592.98,48382
593.32,48853
593.66,48789
593.99,48164
594.33,48286
594.67,49391
595,49664
595.34,48510
595.68,49408
596.01,48248
596.35,50574
596.69,48373
597.02,50385
597.36,49010
597.7,50385
598.03,49632
598.37,50388
598.71,50196
599.04,50222
599.38,50475
599.71,50542
600.05,50792
600.39,50777
600.72,51228
601.06,50132
601.4,50943
601.73,51257
602.07,52734
602.4,51943
602.74,51530
603.07,52350
603.41,52603
603.75,53231
604.08,52751
604.42,52946
604.75,53824
605.09,53821
605.42,53533
605.76,53696
606.09,54199
606.43,54382
606.76,55347
607.1,55036
607.43,55315
607.77,56603
608.1,56937
608.44,57193
608.77,57824
609.11,57350
609.44,57475
609.78,59074
610.11,58225
610.45,59013
610.78,60455
611.12,61045
611.45,60885
611.78,61382
612.12,62350
612.45,62161
612.79,62158
613.12,64498
613.46,63498
613.79,64024
614.12,64681
614.46,66437
614.79,66777
615.13,68716
615.46,68373
615.79,69475
616.13,70280
616.46,72257
616.8,72306
617.13,72248
617.46,73591
617.8,75004
618.13,75716
618.46,76547
618.8,79341
619.13,80027
619.46,81309
619.8,84219
620.13,84213
620.46,84582
620.8,86745
621.13,87149
621.46,89617
621.8,90213
622.13,92838
622.46,94896
622.79,94050
623.13,98431
623.46,98928
623.79,99841
624.12,102524
624.46,104844
624.79,106097
625.12,107876
625.45,107954
625.79,112207
626.12,114117
626.45,116254
626.78,117893
627.12,120890
627.45,122675
627.78,123041
628.11,126262
628.44,129661
628.78,133649
629.11,129477
629.44,133480
629.77,137480
630.1,142076
630.44,139326
630.77,142320
631.1,142160
631.43,143070
631.76,146419
632.09,145637
632.43,148637
632.76,147727
633.09,147567
633.42,147782
633.75,146494
634.08,147773
634.41,146494
634.74,147590
635.07,143750
635.41,141680
635.74,139145
636.07,140197
636.4,135270
636.73,135238
637.06,128883
637.39,125627
637.72,122691
638.05,119438
638.38,115944
638.71,111932
639.04,107912
639.37,104342
639.7,99179
640.03,97205
640.36,93606
640.69,91397
641.02,89115
641.36,86766
641.69,83978
642.02,80600
642.35,78824
642.67,76847
643,74196
643.33,72507
643.66,69251
643.99,67376
644.32,66341
644.65,64838
644.98,63809
645.31,61867
645.64,59608
645.97,61059
646.3,58986
646.63,57771
646.96,57402
647.29,56515
647.62,53791
647.95,53041
648.28,53204
648.6,52256
648.93,51102
649.26,49404
649.59,48154
649.92,47968
650.25,47779
650.58,46436
650.91,46465
651.24,46439
651.56,46753
651.89,45651
652.22,45154
652.55,44779
652.88,43555
653.21,43834
653.53,43270
653.86,42491
654.19,42985
654.52,42046
654.85,42517
655.17,42610
655.5,41171
655.83,41357
656.16,40790
656.49,41075
656.81,40380
657.14,40226
657.47,40075
657.8,40322
658.12,39374
658.45,40165
658.78,40630
659.11,39127
659.43,39662
659.76,39156
660.09,38816
660.42,39377
660.74,38941
661.07,38252
661.4,39005
661.72,38845
662.05,38313
662.38,38467
662.71,38092
663.03,37583
663.36,37961
663.69,37845
664.01,37208
664.34,37769
664.67,38179
664.99,37769
665.32,37987
665.65,37516
665.97,37025
666.3,37359
666.62,36830
666.95,37551
667.28,37301
667.6,37516
667.93,37926
668.25,36952
668.58,36862
668.91,37144
669.23,37016
669.56,37490
669.88,36228
670.21,36295
670.54,36106
670.86,36513
671.19,36260
671.51,36321
671.84,36856
672.16,36539
672.49,36225
672.81,36289
673.14,36353
673.46,35693
673.79,36164
674.11,36536
674.44,35344
674.76,36318
675.09,35187
675.41,35716
675.74,35501
676.06,36036
676.39,35841
676.71,35998
677.04,35725
677.36,34655
677.69,35004
678.01,35216
678.34,35937
678.66,35623
678.99,35213
679.31,34995
679.63,35123
679.96,35553
680.28,35364
680.61,34838
680.93,35678
681.25,35556
681.58,35553
681.9,34925
682.23,35239
682.55,35088
682.87,35370
683.2,34797
683.52,34896
683.84,35611
684.17,34733
684.49,34855
684.82,34576
685.14,34765
685.46,34925
685.79,35210
686.11,34800
686.43,34733
686.75,34707
687.08,34768
687.4,35361
687.72,35573
688.05,34460
688.37,34608
688.69,34765
689.02,35137
689.34,34291
689.66,35201
689.98,34503
690.31,34820
690.63,34352
690.95,34038
691.27,34070
691.6,33759
691.92,34160
692.24,33410
692.56,34230
692.88,34416
693.21,34567
693.53,33907
693.85,33250
694.17,34340
694.49,34157
694.82,34375
695.14,34602
695.46,34503
695.78,33939
696.1,33913
696.42,33971
696.75,33840
697.07,34157
697.39,33308
697.71,34343
698.03,33843
698.35,33247
698.67,34157
699,33817
699.32,33689
699.64,33471
699.96,34369
700.28,33154
700.6,34244
700.92,33651
701.24,33936
701.56,33654
701.88,33805
702.2,33910
702.53,34125
702.85,32997
703.17,33872
703.49,33744
703.81,34209
704.13,33747
704.45,33648
704.77,33369
705.09,33523
705.41,33555
705.73,33052
706.05,34093
706.37,33805
706.69,33802
707.01,33087
707.33,32529
707.65,33808
707.97,33491
708.29,33215
708.61,33401
708.93,32805
709.25,33084
709.57,33898
709.89,33206
710.2,33087
710.52,32927
710.84,34145
711.16,33270
711.48,32863
711.8,33020
712.12,33552
712.44,33773
712.76,33799
713.08,32924
713.4,33744
713.71,33270
714.03,32706
714.35,32761
714.67,33520
714.99,32927
715.31,32706
715.63,33296
715.94,32828
716.26,32418
716.58,33360
716.9,33238
717.22,33395
717.54,33517
717.85,33491
718.17,33264
718.49,33334
718.81,32828
719.13,33017
719.44,33930
719.76,32982
720.08,32828
720.4,33578
720.71,33831
721.03,33206
721.35,33328
721.67,33572
721.99,32799
722.3,32546
722.62,33046
722.94,32546
723.25,33052
723.57,32979
723.89,33517
724.21,33735
724.52,33331
724.84,32703
725.16,32988
725.47,32418
725.79,32918
726.11,33424
726.42,32546
726.74,32668
727.06,31953
727.37,32482
727.69,32822
728.01,32197
728.32,32767
728.64,33043
728.96,32450
729.27,32982
729.59,32799
729.9,33072
730.22,32796
730.54,32325
730.85,32578
731.17,32110
731.48,32982
731.8,32194
732.12,33331
732.43,32892
732.75,33293
733.06,33104
733.38,32950
733.69,32851
734.01,32886
734.32,33357
734.64,33139
734.95,33203
735.27,32642
735.59,32232
735.9,32543
736.22,32322
736.53,32104
736.85,33110
737.16,32450
737.48,33357
737.79,32918
738.1,32575
738.42,33168
738.73,33229
739.05,32979
739.36,36166
739.68,32889
739.99,32863
740.31,32386
740.62,32761
740.93,32072
741.25,31601
741.56,32604
741.88,32982
742.19,32892
742.51,32793
742.82,32883
743.13,32447
743.45,33014
743.76,32197
744.07,32351
744.39,32075
744.7,32235
745.02,32732
745.33,32665
745.64,32514
745.96,32325
746.27,32476
746.58,32258
746.9,32761
747.21,33017
747.52,32703
747.84,32796
748.15,32479
748.46,32447
748.77,32476
749.09,32796
749.4,31947
749.71,32854
750.03,32604
750.34,32729
750.65,32540
750.96,31822
751.28,32825
751.59,32729
751.9,33014
752.21,32540
752.53,32351
752.84,32636
753.15,32665
753.46,32258
753.77,33636
754.09,33066
754.4,33072
754.71,32636
755.02,32979
755.33,32546
755.65,33011
755.96,32953
756.27,32761
756.58,32982
756.89,32258
757.2,32485
757.51,33206
757.83,32607
758.14,33299
758.45,32418
758.76,32886
759.07,32886
759.38,32505
759.69,32502
760,32450
760.31,32761
760.63,32415
760.94,32991
761.25,33197
761.56,32505
761.87,32857
762.18,32694
762.49,33450
762.8,33043
763.11,32546
763.42,31601
763.73,32203
764.04,32348
764.35,32040
764.66,33136
764.97,32723
765.28,32354
765.59,32386
765.9,32444
766.21,32540
766.52,32383
766.83,32726
767.14,32819
767.45,32473
767.76,32066
768.07,32790
768.38,32976
768.69,32976
769,32793
769.31,32572
769.62,32165
769.93,32700
770.24,32848
770.55,34267
770.85,32796
771.16,32886
771.47,32822
771.78,32319
772.09,32409
772.4,32232
772.71,32572
773.02,32482
773.33,32790
773.63,31915
773.94,31822
774.25,32543
774.56,32360
774.87,32822
775.18,32912
775.48,31508
775.79,32290
776.1,32505
776.41,32383
776.72,32476
777.02,32415
777.33,33194
777.64,32601
777.95,32854
778.26,32979
778.56,33165
778.87,32726
779.18,31630
779.49,32133
779.79,32703
780.1,32726
780.41,32790
780.72,32761
781.02,33540
781.33,32950
781.64,33357
781.95,33232
782.25,32136
782.56,32322
782.87,32479
783.17,32726
783.48,32069
783.79,33357
784.09,32633
784.4,32950
784.71,31851
785.01,33258
785.32,32287
785.63,31944
785.93,32633
786.24,32386
786.55,32482
786.85,32697
787.16,32915
787.46,32473
787.77,32351
788.08,32601
788.38,32886
788.69,32822
788.99,32790
789.3,32447
789.61,32889
789.91,33104
790.22,32502
790.52,32101
790.83,32258
791.13,31697
791.44,33040
791.74,31659
792.05,32290
792.35,32444
792.66,32822
792.96,32723
793.27,32383
793.57,33011
793.88,33668
794.18,32290
794.49,32886
794.79,32758
795.1,32848
795.4,32915
795.71,32508
796.01,32566
796.32,31976
796.62,32133
796.93,33139
797.23,32537
797.53,33357
797.84,32002
798.14,32979
798.45,32886
798.75,32758
799.06,32566
799.36,32345
799.66,32668
799.97,32668
800.27,32226
800.57,31540
800.88,32668
801.18,32883
801.49,32601
801.79,32915
802.09,32601
802.4,32348
802.7,32540
803,32380
803.31,32569
803.61,32540
803.91,32290
804.22,32322
804.52,32447
804.82,31947
805.12,32258
805.43,32918
805.73,32255
806.03,33104
806.34,32604
806.64,32348
806.94,32947
807.24,32290
807.55,33142
807.85,32729
808.15,32947
808.45,32848
808.75,32261
809.06,32258
809.36,32482
809.66,32665
809.96,32226
810.26,32229
810.57,32546
810.87,32043
811.17,32319
811.47,33354
811.77,32604
812.08,31784
812.38,32110
812.68,31912
812.98,31886
813.28,32232
813.58,31572
813.88,32252
814.18,32726
814.49,31790
814.79,32473
815.09,32534
815.39,32729
815.69,33415
815.99,32575
816.29,33005
816.59,32165
816.89,32569
817.19,32761
817.49,32412
817.79,33139
818.1,33046
818.4,33444
818.7,32255
819,32569
819.3,33290
819.6,32857
819.9,32287
820.2,32476
820.5,32383
820.8,32601
821.1,33107
821.4,32828
821.7,32694
822,32322
822.3,32700
822.6,32822
822.9,32700
823.19,32918
823.49,32973
823.79,32665
824.09,32665
824.39,32822
824.69,32569
824.99,33005
825.29,32194
825.59,33575
825.89,32165
826.19,32726
826.49,32540
826.78,32703
827.08,32694
827.38,32726
827.68,32595
827.98,33918
828.28,32354
828.58,32889
828.87,32537
829.17,32136
829.47,32441
829.77,31819
830.07,33668
830.37,33014
830.66,32229
830.96,32790
831.26,32476
831.56,33008
831.86,32848
832.15,33069
832.45,32476
832.75,33043
833.05,32883
833.34,32322
833.64,32918
833.94,32915
834.24,32665
834.53,32883
834.83,33043
835.13,32979
835.43,32764
835.72,32383
836.02,32581
836.32,32784
836.61,32979
836.91,32287
837.21,31880
837.5,32473
837.8,32758
838.1,32511
838.39,31941
838.69,33290
838.99,32354
839.28,32886
839.58,31912
839.88,32985
840.17,33322
840.47,32886
840.76,32220
841.06,32508
841.36,32758
841.65,32726
841.95,32822
842.24,32665
842.54,34360
842.84,32470
843.13,32508
843.43,32534
843.72,32857
844.02,33383
844.31,32540
844.61,32790
844.9,32415
845.2,31880
845.5,32011
845.79,32633
846.09,32165
846.38,32380
846.68,32790
846.97,31918
847.27,33354
847.56,33165
847.85,32194
848.15,32223
848.44,32133
848.74,31915
849.03,32255
849.33,32758
849.62,31848
849.92,32450
850.21,32729
850.5,32505
850.8,33386
851.09,32941
851.39,32758
851.68,32287
851.97,32819
852.27,32572
852.56,32915
852.86,32290
853.15,32508
853.44,32351
853.74,31755
854.03,32886
854.32,32662
854.62,33034
854.91,32665
855.2,32790
855.5,32319
855.79,32473
856.08,32194
856.38,31758
856.67,33008
856.96,32918
857.26,33194
857.55,32197
857.84,32572
858.13,32380
858.43,32261
858.72,32197
859.01,32508
859.3,32226
859.6,32543
859.89,32191
860.18,31720
860.47,32287
860.77,32604
861.06,31851
861.35,32287
861.64,33136
861.93,32197
862.23,32790
862.52,33447
862.81,32633
863.1,32825
863.39,32412
863.68,32412
863.98,33101
864.27,32380
864.56,31973
864.85,32668
865.14,32447
865.43,33604
865.72,33107
866.02,33203
866.31,32636
866.6,31944
866.89,32287
867.18,32729
867.47,32851
867.76,32665
868.05,31880
868.34,32665
868.63,32133
868.92,32130
869.21,32854
869.5,31819
869.79,32476
870.08,33008
870.38,33014
870.67,32575
870.96,33005
871.25,32633
871.54,32697
871.83,32572
872.12,32293
872.41,32694
872.69,32508
872.98,32947
873.27,32540
873.56,32479
873.85,32383
874.14,32790
874.43,32514
874.72,32383
875.01,32505